80046394
80096493
80146547
80196405
80246408
80296427
80346483
80396418
80446440
80496406
80546411
80596405
80646404
80696518
80746397
80796402
80846428
80896398
80946431
80996407
81046408
81096405
81146408
81196428
81246403
81296405
81346404
81396404
81446399
81496406
81546454
81596395
81646453
81696446
81746414
81796407
81846408
81896406
81946410
81996450
82046441
82096400
82146419
82196459
82246453
82296536
82346438
82396437
82446422
82496540
82546526
82596403
82646395
82696414
82746402
82796431
82846436
82896407
82946460
82996443
83046396
83096445
83146397
83196403
83246402
83296407
83346450
83396398
83446549
83496423
83546481
83596413
83646528
83696396
83746408
83796406
83846435
83896426
83946564
83996402
84046430
84096400
84146401
84196444
84246403
84296401
84346429
84396467
84446405
84496424
84546400
84596475
84646398
84696436
84746395
84796406
84846509
84896708
84946396
84996447
85046410
85096405
85146450
85196462
85246401
85296415
85346424
85396413
85446398
85496398
85546410
85596442
85646409
85696415
85746438
85796396
85846425
85896413
85946484
85996425
86046437
86096476
86146403
86196623
86246505
86296396
86346462
86396668
86446519
86496523
86546415
86596561
86646543
86696438
86746512
86796663
86846621
86896469
86946450
86996414
87046406
87096403
87146420
87196397
87246402
87296417
87346395
87396443
87446400
87496395
87546401
87596437
87646428
87696396
87746397
87796399
87846409
87896405
87946402
87996410
88046435
88096441
88146399
88196401
88246521
88296405
88346406
88396398
88446428
88496409
88546409
88596400
88646405
88696409
88746414
88796395
88846399
88896423
88946401
88996418
89046456
89096398
89146399
89196434
89246399
89296419
89346395
89396414
89446395
89496397
89546413
89596469
89646395
89696412
89746451
89796403
89846407
89896411
89946398
89996422
90046415
90096415
90146398
90196428
90246397
90296398
90346494
90396443
90446422
90496449
90546422
90596421
90646434
90696400
90746423
90796405
90846414
90896435
90946399
90996416
91046413
91096485
91146395
91196420
91246403
91296400
91346421
91396399
91446656
91496409
91546410
91596395
91646473
91696402
91746412
91796411
91846398
91896397
91946412
91996408
92046409
92096415
92146402
92196447
92246398
92296396
92346411
92396404
92446430
92496400
92546398
92596412
92646399
92696400
92746405
92796408
92846405
92896410
92946397
92996397
93046416
93096436
93146407
93196395
93246451
93296406
93346395
93396398
93446535
93496398
93546402
93596465
93646404
93696396
93746401
93796402
93846436
93896418
93946417
93996435
94046400
94096395
94146395
94196422
94246419
94296447
94346417
94396487
94446426
94496397
94546460
94596451
94646414
94696442
94746463
94796400
94846404
94896402
94946427
94996396
95046403
95096415
95146417
95196405
95246411
95296471
95346413
95396397
95446454
95496410
95546422
95596396
95646402
95696402
95746400
95796395
95846403
95896423
95946421
95996398
96046420
96096399
96146438
96196404
96246410
96296397
96346491
96396411
96446405
96496405
96546412
96596416
96646429
96696400
96746422
96796398
96846399
96896416
96946414
96996411
97046399
97096400
97146551
97196435
97246395
97296408
97346402
97396410
97446414
97496409
97546404
97596408
97646401
97696396
97746405
97796400
97846397
97896417
97946408
97996435
98046395
98096396
98146435
98196395
98246405
98296419
98346453
98396402
98446427
98496402
98546418
98596399
98646403
98696404
98746395
98796396
98846412
98896411
98946396
98996420
99046399
99096407
99146401
99196504
99246411
99296400
99346407
99396403
99446404
99496475
99546397
99596408
99646398
99696428
99746395
99796406
99846396
99896424
99946423
99996408
100046395
100096402
100146397
100196415
100246403
100296402
100346412
100396413
100446404
100496402
100546407
100596419
100646473
100696405
100746434
100796395
100846397
100896434
100946469
100996400
101046402
101096397
101146407
101196420
101246418
101296407
101346404
101396397
101446401
101496454
101546404
101596438
101646409
101696400
101746406
101796418
101846396
101896406
101946435
101996395
102046410
102096407
102146415
102196417
102246421
102296408
102346424
102396417
102446395
102496401
102546409
102596415
102646397
102696482
102746431
102796403
102846437
102896396
102946424
102996408
103046448
103096409
103146400
103196402
103246405
103296403
103346403
103396395
103446438
103496420
103546409
103596449
103646435
103696401
103746421
103796412
103846459
103896395
103946427
103996418
104046411
104096440
104146444
104196500
104246420
104296458
104346684
104396645
104446432
104496458
104546577
104596428
104646476
104696420
104747119
104796636
104846534
104896426
104946423
104996546
105046663
105096616
105146479
105196397
105246627
105296424
105346435
105396447
105446528
105496405
105546473
105596410
105646463
105696474
105746436
105796423
105846980
105896557
105946495
105996419
106046468
106096886
106147662
106196597
106247886
106296473
106346642
106397148
106446704
106496491
106546591
106596427
106646509
106696456
106746765
106796477
106846522
106896466
106946959
106996696
107046891
107096483
107146461
107196691
107246625
107296608
107346501
107396421
107446610
107497071
107546399
107596917
107646818
107696966
107746680
107796699
107847368
107896584
107947589
107996738
108046519
108096463
108146421
108196468
108246488
108296583
108346460
108396478
108446395
108496396
108546442
108596624
108646489
108696998
108746403
108796502
108846494
108896418
108946402
108996407
109046541
109096641
109146528
109196459
109246468
109296509
109346690
109396532
109446401
109496635
109546665
109596422
109647632
109696467
109746729
109796450
109846560
109896452
109946557
109997069
110046762
110096518
110146598
110196635
110246429
110296562
110346924
110396658
110446437
110496930
110546528
110596607
110646901
110697146
110746740
110796931
110846474
110896818
110946513
110996822
111046591
111096419
111146535
111196426
111246510
111296532
111346395
111396530
111446698
111496580
111546613
111596447
111646433
111696550
111746708
111796434
111846657
111896509
111946451
111996413
112046527
112096429
112146578
112196477
112246868
112296582
112346528
112396405
112446412
112496465
112546775
112596481
112646403
112696402
112746524
112796398
112846777
112896733
112946523
112996414
113047569
113096626
113147037
113196589
113246613
113296668
113347414
113396668
113447059
113497409
113546843
113596518
113646522
113696486
113746432
113796409
113846824
113896885
113946876
113996501
114046441
114096507
114146619
114196396
114246454
114296412
114346436
114396397
114446447
114496450
114546398
114596397
114646406
114696404
114746418
114796398
114846396
114896396
114946407
114996398
115046395
115096397
115146395
115196395
115246406
115296411
115346403
115396400
115446408
115496395
115546395
115596400
115646406
115696397
115746406
115796421
115846419
115896396
115946404
115996399
116046399
116096396
116146401
116196398
116246439
116296418
116346401
116396418
116446404
116496410
116546397
116596398
116646419
116696410
116746412
116796398
116846395
116896416
116946411
116996403
117046417
117096395
117146401
117196413
117246407
117296403
117346414
117396399
117446404
117496413
117546399
117596396
117646404
117696400
117746396
117796404
117846405
117896399
117946408
117996405
118046418
118096400
118146397
118196396
118246397
118296410
118346401
118396411
118446395
118496399
118546405
118596405
118646396
118696401
118746397
118796396
118846396
118896401
118946401
118996402
119046406
119096398
119146397
119196412
119246398
119296407
119346410
119396400
119446412
119496397
119546448
119596425
119646400
119696406
119746401
119796395
119846407
119896399
119946410
119996403
120046399
120096420
120146398
120196419
120246395
120296399
120346397
120396395
120446395
120496401
120546399
120596399
120646397
120696447
120746405
120796416
120846404
120896432
120946406
120996407
121046395
121096396
121146399
121196398
121246399
121296397
121346396
121396401
121446399
121496401
121546396
121596440
121646396
121696426
121746396
121796405
121846398
121896399
121946400
121996401
122046417
122096405
122146395
122196397
122246398
122296398
122346418
122396395
122446397
122496407
122546411
122596395
122646403
122696418
122746395
122796411
122846399
122896398
122946408
122996407
123046407
123096396
123146395
123196398
123246404
123296403
123346410
123396396
123446396
123496458
123546409
123596406
123646418
123696410
123746421
123796478
123846765
123896599
123946736
123996620
124046495
124096581
124146661
124196421
124246429
124296439
124346429
124396430
124446424
124496398
124546395
124596396
124646401
124696414
124746419
124796400
124846407
124896434
124946397
124996396
125046398
125096397
125146396
125196410
125246437
125296395
125346396
125396397
125446396
125496397
125546398
125596452
125646403
125696420
125746405
125796402
125846398
125896423
125946401
125996398
126046405
126096403
126146397
126196405
126246401
126296411
126346395
126396402
126446396
126496417
126546410
126596395
126646400
126696410
126746397
126796433
126846396
126896404
126946417
126996395
127046405
127096395
127146395
127196402
127246400
127296395
127346426
127396416
127446407
127496395
127546397
127596401
127646416
127696395
127746395
127796399
127846397
127896399
127946412
127996415
128046408
128096402
128146396
128196400
128246420
128296397
128346420
128396445
128446416
128496396
128546396
128596398
128646406
128696396
128746418
128796402
128846401
128896403
128946414
128996397
129046408
129096401
129146402
129196397
129246405
129296404
129346397
129396398
129446395
129496407
129546430
129596398
129646432
129696422
129746424
129796401
129846396
129896410
129946405
129996399
130046395
130096405
130146398
130196409
130246397
130296398
130346399
130396397
130446406
130496406
130546412
130596396
130646417
130696398
130746396
130796404
130846395
130896399
130946414
130996404
131046401
131096406
131146400
131196406
131246399
131296403
131346397
131396395
131446426
131496395
131546395
131596396
131646410
131696397
131746404
131796504
131846448
131896517
131946395
131996505
132046448
132096412
132146397
132196446
132246407
132296451
132346419
132396440
132446509
132496431
132546475
132596666
132646460
132696453
132746425
132796398
132846433
132896832
132946529
132996577
133046530
133096536
133146628
133196648
133246482
133296404
133346651
133396651
133446404
133496410
133546398
133596414
133646395
133696420
133746395
133796406
133846410
133896441
133946400
133996395
134046415
134096431
134146397
134196396
134246430
134296405
134346404
134396403
134446397
134496400
134546396
134596395
134646396
134696403
134746418
134796398
134846415
134896403
134946398
134996398
135046399
135096424
135146397
135196417
135246419
135296409
135346411
135396415
135446410
135496402
135546433
135596419
135646407
135696409
135746412
135796404
135846400
135896398
135946399
135996399
136046416
136096405
136146439
136196399
136246395
136296405
136346430
136396395
136446403
136496399
136546412
136596408
136646400
136696398
136746397
136796396
136846395
136896406
136946410
136996411
137046396
137096408
137146407
137196405
137246398
137296401
137346412
137396403
137446403
137496428
137546426
137596408
137646399
137696404
137746399
137796400
137846397
137896409
137946428
137996407
138046406
138096396
138146423
138196402
138246444
138296406
138346425
138396421
138446434
138496413
138546398
138596402
138646398
138696408
138746405
138796396
138846396
138896396
138946409
138996395
139046415
139096398
139146398
139196411
139246397
139296422
139346395
139396399
139446398
139496395
139546396
139596401
139646406
139696399
139746398
139796402
139846422
139896395
139946410
139996464
140046398
140096410
140146457
140196402
140246430
140296409
140346396
140396426
140446395
140496401
140546396
140596396
140646414
140696422
140746424
140796433
140846397
140896403
140946399
140996404
141046401
141096399
141146416
141196446
141246395
141296412
141346407
141396400
141446396
141496396
141546404
141596431
141646398
141696401
141746406
141796403
141846402
141896425
141946396
141996414
142046417
142096461
142146492
142196427
142246440
142296407
142346440
142396395
142446443
142496395
142546400
142596412
142646399
142696400
142746396
142796407
142846398
142896407
142946398
142996396
143046409
143096408
143146399
143196406
143246447
143296397
143346404
143396405
143446397
143496428
143546424
143596414
143646397
143696416
143746403
143796396
143846403
143896398
143946410
143996399
144046433
144096469
144146397
144196409
144246398
144296407
144346429
144396395
144446412
144496396
144546401
144596401
144646398
144696395
144746420
144796397
144846418
144896399
144946422
144996411
145046395
145096401
145146409
145196405
145246449
145296418
145346410
145396399
145446405
145496399
145546397
145596405
145646399
145696395
145746396
145796418
145846397
145896400
145946407
145996422
146046412
146096401
146146395
146196402
146246404
146296420
146346399
146396399
146446411
146496396
146546396
146596402
146646396
146696408
146746438
146796408
146846409
146896406
146946407
146996399
147046396
147096397
147146403
147196403
147246399
147296397
147346405
147396395
147446399
147496414
147546400
147596402
147646395
147696425
147746410
147796402
147846397
147896401
147946402
147996410
148046403
148096410
148146397
148196404
148246403
148296399
148346401
148396395
148446395
148496426
148546422
148596405
148646397
148696408
148746405
148796430
148846436
148896402
148946404
148996417
149046398
149096419
149146485
149196434
149246425
149296456
149346455
149396427
149446395
149496397
149546395
149596514
149646413
149696607
149746509
149796430
149846446
149896401
149946430
149996441
150046395
150096413
150146555
150196464
150246430
150296410
150346400
150396397
150446402
150496445
150546401
150596410
150646429
150696397
150746437
150796403
150846412
150896415
150946400
150996440
151046400
151096395
151146408
151196402
151246395
151296408
151346425
151396395
151446401
151496401
151546400
151596420
151646399
151696399
151746395
151796403
151846425
151896410
151946396
151996395
152046421
152096431
152146435
152196395
152246412
152296400
152346406
152396456
152446432
152496399
152546413
152596467
152646400
152696400
152746408
152796397
152846460
152896410
152946398
152996406
153046396
153096407
153146401
153196400
153246409
153296397
153346395
153396407
153446409
153496409
153546397
153596467
153646432
153696415
153746396
153796408
153846398
153896401
153946412
153996405
154046414
154096420
154146402
154196405
154246406
154296396
154346423
154396398
154446427
154496399
154546395
154596402
154646397
154696409
154746430
154796439
154846396
154896449
154946421
154996416
155046405
155096411
155146422
155196401
155246400
155296403
155346398
155396430
155446421
155496395
155546412
155596403
155646405
155696401
155746414
155796396
155846479
155896397
155946433
155996396
156046402
156096426
156146405
156196413
156246506
156296397
156346401
156396440
156446396
156496426
156546399
156596427
156646402
156696395
156746472
156796396
156846503
156896410
156946416
156996397
157046396
157096521
157146400
157196421
157246399
157296425
157346412
157396412
157446449
157496428
157546400
157596453
157646447
157696456
157746471
157796406
157846397
157896400
157946439
157996415
158046395
158096429
158146406
158196411
158246402
158296399
158346397
158396395
158446403
158496409
158546402
158596405
158646408
158696399
158746411
158796449
158846455
158896395
158946397
158996402
159046401
159096400
159146437
159196395
159246396
159296413
159346406
159396395
159446407
159496401
159546563
159596450
159646397
159696415
159746422
159796400
159846404
159896422
159946395
159996403
160046414
160096399
160146422
160196468
160246395
160296403
160346415
160396421
160446411
160496396
160546413
160596403
160646430
160696416
160746403
160796397
160846424
160896482
160946406
160996395
161046419
161096395
161146395
161196421
161246405
161296403
161346400
161396407
161446395
161496425
161546421
161596398
161646408
161696414
161746428
161796398
161846402
161896495
161946419
161996409
162046405
162096398
162146406
162196448
162246435
162296400
162346431
162396410
162446466
162496433
162546411
162596400
162646403
162696397
162746398
162796397
162846432
162896396
162946476
162996428
163046401
163096398
163146406
163196398
163246420
163296466
163346398
163396403
163446400
163496484
163546409
163596448
163646400
163696415
163746400
163796400
163846418
163896438
163946397
163996407
164046399
164096457
164146400
164196398
164246395
164296406
164346395
164396404
164446426
164496456
164546399
164596427
164646421
164696406
164746579
164796405
164846403
164896414
164946396
164996426
165046402
165096400
165146400
165196406
165246403
165296406
165346395
165396415
165446411
165496409
165546397
165596397
165646398
165696395
165746415
165796436
165846397
165896399
165946409
165996406
166046423
166096404
166146398
166196420
166246402
166296397
166346404
166396397
166446398
166496406
166546403
166596400
166646395
166696398
166746407
166796460
166846395
166896423
166946398
166996395
167046491
167096426
167146430
167196396
167246396
167296483
167346416
167396401
167446398
167496421
167546406
167596397
167646395
167696397
167746424
167796433
167846419
167896396
167946395
167996411
168046415
168096399
168146396
168196428
168246396
168296460
168346425
168396414
168446400
168496396
168546447
168596417
168646404
168696410
168746399
168796420
168846397
168896402
168946397
168996399
169046395
169096397
169146402
169196396
169246410
169296461
169346401
169396408
169446397
169496408
169546434
169596400
169646399
169696419
169746462
169796397
169846425
169896399
169946422
169996421
170046408
170096399
170146403
170196407
170246527
170296425
170346417
170396412
170446411
170496412
170546405
170596426
170646395
170696395
170746420
170796409
170846398
170896396
170946420
170996413
171046407
171096428
171146420
171196399
171246404
171296408
171346399
171396845
171446486
171496423
171546398
171596402
171646399
171696411
171746400
171796395
171846411
171896402
171946446
171996398
172046471
172096425
172146577
172196455
172246547
172296422
172346494
172396583
172446406
172496411
172546397
172596399
172646396
172696400
172746421
172796396
172846407
172896395
172946407
172996404
173046467
173096414
173146430
173196408
173246422
173296401
173346395
173396400
173446444
173496433
173546398
173596412
173646399
173696437
173746399
173796401
173846410
173896440
173946395
173996409
174046419
174096403
174146399
174196400
174246419
174296454
174346411
174396396
174446473
174496400
174546409
174596399
174646415
174696397
174746425
174796428
174846431
174896484
174946400
174996415
175046431
175096404
175146397
175196435
175246438
175296405
175346400
175396401
175446402
175496399
175546397
175596412
175646408
175696421
175746423
175796409
175846400
175896425
175946479
175996419
176046415
176096419
176146396
176196400
176246416
176296397
176346427
176396434
176446396
176496419
176546446
176596405
176646397
176696421
176746424
176796428
176846484
176896411
176946405
176996429
177046428
177096402
177146396
177196397
177246400
177296397
177346403
177396433
177446424
177496405
177546423
177596409
177646422
177696402
177746400
177796401
177846395
177896444
177946469
177996450
178046456
178096438
178146422
178196447
178246425
178296395
178346456
178396426
178446431
178496415
178546401
178596444
178646396
178696400
178746437
178796396
178846419
178896406
178946414
178996396
179046402
179096444
179146432
179196434
179246408
179296646
179346510
179396404
179446425
179496396
179546409
179596407
179646397
179696402
179746419
179796461
179846405
179896398
179946422
179996397
180046400
180096412
180146446
180196574
180246434
180296473
180346401
180396513
180446656
180496463
180546408
180596620
180646407
180696406
180746404
180796397
180846399
180896406
180946401
180996397
181046417
181096396
181146413
181196395
181246396
181296401
181346395
181396400
181446401
181496398
181546396
181596397
181646403
181696404
181746397
181796412
181846424
181896399
181946400
181996399
182046405
182096415
182146430
182196447
182246413
182296404
182346400
182396397
182446396
182496413
182546398
182596417
182646397
182696403
182746395
182796395
182846431
182896400
182946413
182996399
183046397
183096420
183146475
183196408
183246433
183296397
183346403
183396427
183446395
183496397
183546395
183596398
183646399
183696395
183746399
183796420
183846399
183896399
183946475
183996431
184046395
184096450
184146400
184196418
184246409
184296463
184346414
184396407
184446398
184496404
184546412
184596430
184646409
184696409
184746401
184796399
184846400
184896412
184946410
184996405
185046412
185096397
185146399
185196427
185246411
185296397
185346421
185396412
185446444
185496403
185546396
185596426
185646398
185696401
185746461
185796432
185846405
185896400
185946399
185996408
186046402
186096395
186146408
186196401
186246402
186296396
186346406
186396409
186446408
186496407
186546422
186596415
186646395
186696399
186746416
186796403
186846403
186896403
186946421
186996397
187046421
187096401
187146398
187196402
187246406
187296407
187346435
187396419
187446395
187496452
187546395
187596408
187646395
187696411
187746406
187796397
187846413
187896399
187946398
187996416
188046400
188096409
188146406
188196405
188246396
188296455
188346434
188396397
188446410
188496398
188546493
188596412
188646399
188696417
188746401
188796523
188846728
188896408
188946449
188996404
189046395
189096462
189146418
189196449
189246399
189296401
189346413
189396396
189446400
189496421
189546408
189596396
189646396
189696410
189746406
189796395
189846402
189896396
189946395
189996408
190046447
190096518
190146446
190196534
190246425
190296556
190346413
190396471
190446405
190496421
190546422
190596415
190646398
190696405
190746450
190796406
190846430
190896401
190946423
190996410
191046405
191096430
191146413
191196398
191246475
191296397
191346515
191396422
191446402
191496402
191546401
191596444
191646423
191696409
191746399
191796492
191846446
191896520
191946418
191996511
192046459
192096509
192146413
192196473
192246426
192296418
192346423
192396416
192446443
192496409
192546460
192596437
192646403
192696633
192746466
192796408
192846485
192896607
192946395
192996447
193046409
193096950
193146498
193196422
193246412
193296532
193346429
193396434
193446600
193496562
193546513
193596403
193646420
193696550
193746512
193796529
193846493
193896413
193946415
193996405
194046474
194096442
194146421
194196395
