from_timestamp_us,to_timestamp_us,file_index
80046394,80146547,0
80546411,80646404,10
81046408,81146408,20
81546454,81646453,30
82046441,82146419,40
82546526,82646395,50
83046396,83146397,60
83546481,83646528,70
84046430,84146401,80
84546400,84646398,90
85046410,85146450,100
85546410,85646409,110
86046437,86146403,120
86546415,86646543,130
87046406,87146420,140
87546401,87646428,150
88046435,88146399,160
88546409,88646405,170
89046456,89146399,180
89546413,89646395,190
90046415,90146398,200
90546422,90646434,210
91046413,91146395,220
91546410,91646473,230
92046409,92146402,240
92546398,92646399,250
93046416,93146407,260
93546402,93646404,270
94046400,94146395,280
94546460,94646414,290
95046403,95146417,300
95546422,95646402,310
96046420,96146438,320
96546412,96646429,330
97046399,97146551,340
97546404,97646401,350
98046395,98146435,360
98546418,98646403,370
99046399,99146401,380
99546397,99646398,390
100046395,100146397,400
100546407,100646473,410
101046402,101146407,420
101546404,101646409,430
102046410,102146415,440
102546409,102646397,450
103046448,103146400,460
103546409,103646435,470
104046411,104146444,480
104546577,104646476,490
105046663,105146479,500
105546473,105646463,510
106046468,106147662,520
106546591,106646509,530
107046891,107146461,540
107546399,107646818,550
108046519,108146421,560
108546442,108646489,570
109046541,109146528,580
109546665,109647632,590
110046762,110146598,600
110546528,110646901,610
111046591,111146535,620
111546613,111646433,630
112046527,112146578,640
112546775,112646403,650
113047569,113147037,660
113546843,113646522,670
114046441,114146619,680
114546398,114646406,690
115046395,115146395,700
115546395,115646406,710
116046399,116146401,720
116546397,116646419,730
117046417,117146401,740
117546399,117646404,750
118046418,118146397,760
118546405,118646396,770
119046406,119146397,780
119546448,119646400,790
120046399,120146398,800
120546399,120646397,810
121046395,121146399,820
121546396,121646396,830
122046417,122146395,840
122546411,122646403,850
123046407,123146395,860
123546409,123646418,870
124046495,124146661,880
124546395,124646401,890
125046398,125146396,900
125546398,125646403,910
126046405,126146397,920
126546410,126646400,930
127046405,127146395,940
127546397,127646416,950
128046408,128146396,960
128546396,128646406,970
129046408,129146402,980
129546430,129646432,990
130046395,130146398,1000
130546412,130646417,1010
131046401,131146400,1020
131546395,131646410,1030
132046448,132146397,1040
132546475,132646460,1050
133046530,133146628,1060
133546398,133646395,1070
134046415,134146397,1080
134546396,134646396,1090
135046399,135146397,1100
135546433,135646407,1110
136046416,136146439,1120
136546412,136646400,1130
137046396,137146407,1140
137546426,137646399,1150
138046406,138146423,1160
138546398,138646398,1170
139046415,139146398,1180
139546396,139646406,1190
140046398,140146457,1200
140546396,140646414,1210
141046401,141146416,1220
141546404,141646398,1230
142046417,142146492,1240
142546400,142646399,1250
143046409,143146399,1260
143546424,143646397,1270
144046433,144146397,1280
144546401,144646398,1290
145046395,145146409,1300
145546397,145646399,1310
146046412,146146395,1320
146546396,146646396,1330
147046396,147146403,1340
147546400,147646395,1350
148046403,148146397,1360
148546422,148646397,1370
149046398,149146485,1380
149546395,149646413,1390
150046395,150146555,1400
150546401,150646429,1410
151046400,151146408,1420
151546400,151646399,1430
152046421,152146435,1440
152546413,152646400,1450
153046396,153146401,1460
153546397,153646432,1470
154046414,154146402,1480
154546395,154646397,1490
155046405,155146422,1500
155546412,155646405,1510
156046402,156146405,1520
156546399,156646402,1530
157046396,157146400,1540
157546400,157646447,1550
158046395,158146406,1560
158546402,158646408,1570
159046401,159146437,1580
159546563,159646397,1590
160046414,160146422,1600
160546413,160646430,1610
161046419,161146395,1620
161546421,161646408,1630
162046405,162146406,1640
162546411,162646403,1650
163046401,163146406,1660
163546409,163646400,1670
164046399,164146400,1680
164546399,164646421,1690
165046402,165146400,1700
165546397,165646398,1710
166046423,166146398,1720
166546403,166646395,1730
167046491,167146430,1740
167546406,167646395,1750
168046415,168146396,1760
168546447,168646404,1770
169046395,169146402,1780
169546434,169646399,1790
170046408,170146403,1800
170546405,170646395,1810
171046407,171146420,1820
171546398,171646399,1830
172046471,172146577,1840
172546397,172646396,1850
173046467,173146430,1860
173546398,173646399,1870
174046419,174146399,1880
174546409,174646415,1890
175046431,175146397,1900
175546397,175646408,1910
176046415,176146396,1920
176546446,176646397,1930
177046428,177146396,1940
177546423,177646422,1950
178046456,178146422,1960
178546401,178646396,1970
179046402,179146432,1980
179546409,179646397,1990
180046400,180146446,2000
180546408,180646407,2010
181046417,181146413,2020
181546396,181646403,2030
182046405,182146430,2040
182546398,182646397,2050
183046397,183146475,2060
183546395,183646399,2070
184046395,184146400,2080
184546412,184646409,2090
185046412,185146399,2100
185546396,185646398,2110
186046402,186146408,2120
186546422,186646395,2130
187046421,187146398,2140
187546395,187646395,2150
188046400,188146406,2160
188546493,188646399,2170
189046395,189146418,2180
189546408,189646396,2190
190046447,190146446,2200
190546422,190646398,2210
191046405,191146413,2220
191546401,191646423,2230
192046459,192146413,2240
192546460,192646403,2250
193046409,193146498,2260
193546513,193646420,2270
194046474,194146421,2280
